# Pulseq sequence file
# Created by PyPulseq

[VERSION]
major 1
minor 3
revision 1post1

[DEFINITIONS]
Total duration 3.072 
FOV 0.256 0.256 0.003 
Name gre 

# Format of blocks:
#  #  D RF  GX  GY  GZ ADC EXT
[BLOCKS]
   1  0  1   0   0   1  0  0
   2  0  0   2   3   4  0  0
   3  1  0   0   0   0  0  0
   4  0  0   5   0   0  1  0
   5  2  0   6   7   8  0  0
   6  0  2   0   0   1  0  0
   7  0  0   2   9   4  0  0
   8  1  0   0   0   0  0  0
   9  0  0   5   0   0  2  0
  10  2  0   6  10   8  0  0
  11  0  3   0   0   1  0  0
  12  0  0   2  11   4  0  0
  13  1  0   0   0   0  0  0
  14  0  0   5   0   0  3  0
  15  2  0   6  12   8  0  0
  16  0  4   0   0   1  0  0
  17  0  0   2  13   4  0  0
  18  1  0   0   0   0  0  0
  19  0  0   5   0   0  4  0
  20  2  0   6  14   8  0  0
  21  0  5   0   0   1  0  0
  22  0  0   2  15   4  0  0
  23  1  0   0   0   0  0  0
  24  0  0   5   0   0  5  0
  25  2  0   6  16   8  0  0
  26  0  6   0   0   1  0  0
  27  0  0   2  17   4  0  0
  28  1  0   0   0   0  0  0
  29  0  0   5   0   0  6  0
  30  2  0   6  18   8  0  0
  31  0  7   0   0   1  0  0
  32  0  0   2  19   4  0  0
  33  1  0   0   0   0  0  0
  34  0  0   5   0   0  7  0
  35  2  0   6  20   8  0  0
  36  0  8   0   0   1  0  0
  37  0  0   2  21   4  0  0
  38  1  0   0   0   0  0  0
  39  0  0   5   0   0  8  0
  40  2  0   6  22   8  0  0
  41  0  9   0   0   1  0  0
  42  0  0   2  23   4  0  0
  43  1  0   0   0   0  0  0
  44  0  0   5   0   0  9  0
  45  2  0   6  24   8  0  0
  46  0 10   0   0   1  0  0
  47  0  0   2  25   4  0  0
  48  1  0   0   0   0  0  0
  49  0  0   5   0   0 10  0
  50  2  0   6  26   8  0  0
  51  0  6   0   0   1  0  0
  52  0  0   2  27   4  0  0
  53  1  0   0   0   0  0  0
  54  0  0   5   0   0  6  0
  55  2  0   6  28   8  0  0
  56  0 11   0   0   1  0  0
  57  0  0   2  29   4  0  0
  58  1  0   0   0   0  0  0
  59  0  0   5   0   0 11  0
  60  2  0   6  30   8  0  0
  61  0 12   0   0   1  0  0
  62  0  0   2  31   4  0  0
  63  1  0   0   0   0  0  0
  64  0  0   5   0   0 12  0
  65  2  0   6  32   8  0  0
  66  0 13   0   0   1  0  0
  67  0  0   2  33   4  0  0
  68  1  0   0   0   0  0  0
  69  0  0   5   0   0 13  0
  70  2  0   6  34   8  0  0
  71  0 14   0   0   1  0  0
  72  0  0   2  35   4  0  0
  73  1  0   0   0   0  0  0
  74  0  0   5   0   0 14  0
  75  2  0   6  36   8  0  0
  76  0  1   0   0   1  0  0
  77  0  0   2  37   4  0  0
  78  1  0   0   0   0  0  0
  79  0  0   5   0   0  1  0
  80  2  0   6  38   8  0  0
  81  0 15   0   0   1  0  0
  82  0  0   2  39   4  0  0
  83  1  0   0   0   0  0  0
  84  0  0   5   0   0 15  0
  85  2  0   6  40   8  0  0
  86  0 16   0   0   1  0  0
  87  0  0   2  41   4  0  0
  88  1  0   0   0   0  0  0
  89  0  0   5   0   0 16  0
  90  2  0   6  42   8  0  0
  91  0 13   0   0   1  0  0
  92  0  0   2  43   4  0  0
  93  1  0   0   0   0  0  0
  94  0  0   5   0   0 13  0
  95  2  0   6  44   8  0  0
  96  0 17   0   0   1  0  0
  97  0  0   2  45   4  0  0
  98  1  0   0   0   0  0  0
  99  0  0   5   0   0 17  0
 100  2  0   6  46   8  0  0
 101  0  5   0   0   1  0  0
 102  0  0   2  47   4  0  0
 103  1  0   0   0   0  0  0
 104  0  0   5   0   0  5  0
 105  2  0   6  48   8  0  0
 106  0 18   0   0   1  0  0
 107  0  0   2  49   4  0  0
 108  1  0   0   0   0  0  0
 109  0  0   5   0   0 18  0
 110  2  0   6  50   8  0  0
 111  0 19   0   0   1  0  0
 112  0  0   2  51   4  0  0
 113  1  0   0   0   0  0  0
 114  0  0   5   0   0 19  0
 115  2  0   6  52   8  0  0
 116  0  9   0   0   1  0  0
 117  0  0   2  53   4  0  0
 118  1  0   0   0   0  0  0
 119  0  0   5   0   0  9  0
 120  2  0   6  54   8  0  0
 121  0 20   0   0   1  0  0
 122  0  0   2  55   4  0  0
 123  1  0   0   0   0  0  0
 124  0  0   5   0   0 20  0
 125  2  0   6  56   8  0  0
 126  0 10   0   0   1  0  0
 127  0  0   2  57   4  0  0
 128  1  0   0   0   0  0  0
 129  0  0   5   0   0 10  0
 130  2  0   6  58   8  0  0
 131  0 18   0   0   1  0  0
 132  0  0   2  59   4  0  0
 133  1  0   0   0   0  0  0
 134  0  0   5   0   0 18  0
 135  2  0   6  60   8  0  0
 136  0 21   0   0   1  0  0
 137  0  0   2  61   4  0  0
 138  1  0   0   0   0  0  0
 139  0  0   5   0   0 21  0
 140  2  0   6  62   8  0  0
 141  0  4   0   0   1  0  0
 142  0  0   2  63   4  0  0
 143  1  0   0   0   0  0  0
 144  0  0   5   0   0  4  0
 145  2  0   6  64   8  0  0
 146  0 22   0   0   1  0  0
 147  0  0   2  65   4  0  0
 148  1  0   0   0   0  0  0
 149  0  0   5   0   0 22  0
 150  2  0   6  66   8  0  0
 151  0 14   0   0   1  0  0
 152  0  0   2  67   4  0  0
 153  1  0   0   0   0  0  0
 154  0  0   5   0   0 14  0
 155  2  0   6  68   8  0  0
 156  0 15   0   0   1  0  0
 157  0  0   2  69   4  0  0
 158  1  0   0   0   0  0  0
 159  0  0   5   0   0 15  0
 160  2  0   6  70   8  0  0
 161  0 23   0   0   1  0  0
 162  0  0   2  71   4  0  0
 163  1  0   0   0   0  0  0
 164  0  0   5   0   0 23  0
 165  2  0   6  72   8  0  0
 166  0  2   0   0   1  0  0
 167  0  0   2  73   4  0  0
 168  1  0   0   0   0  0  0
 169  0  0   5   0   0  2  0
 170  2  0   6  74   8  0  0
 171  0 22   0   0   1  0  0
 172  0  0   2  75   4  0  0
 173  1  0   0   0   0  0  0
 174  0  0   5   0   0 22  0
 175  2  0   6  76   8  0  0
 176  0 17   0   0   1  0  0
 177  0  0   2  77   4  0  0
 178  1  0   0   0   0  0  0
 179  0  0   5   0   0 17  0
 180  2  0   6  78   8  0  0
 181  0 11   0   0   1  0  0
 182  0  0   2  79   4  0  0
 183  1  0   0   0   0  0  0
 184  0  0   5   0   0 11  0
 185  2  0   6  80   8  0  0
 186  0 24   0   0   1  0  0
 187  0  0   2  81   4  0  0
 188  1  0   0   0   0  0  0
 189  0  0   5   0   0 24  0
 190  2  0   6  82   8  0  0
 191  0  7   0   0   1  0  0
 192  0  0   2  83   4  0  0
 193  1  0   0   0   0  0  0
 194  0  0   5   0   0  7  0
 195  2  0   6  84   8  0  0
 196  0 20   0   0   1  0  0
 197  0  0   2  85   4  0  0
 198  1  0   0   0   0  0  0
 199  0  0   5   0   0 20  0
 200  2  0   6  86   8  0  0
 201  0 20   0   0   1  0  0
 202  0  0   2  87   4  0  0
 203  1  0   0   0   0  0  0
 204  0  0   5   0   0 20  0
 205  2  0   6  88   8  0  0
 206  0  7   0   0   1  0  0
 207  0  0   2  89   4  0  0
 208  1  0   0   0   0  0  0
 209  0  0   5   0   0  7  0
 210  2  0   6  90   8  0  0
 211  0 24   0   0   1  0  0
 212  0  0   2  91   4  0  0
 213  1  0   0   0   0  0  0
 214  0  0   5   0   0 24  0
 215  2  0   6  92   8  0  0
 216  0 11   0   0   1  0  0
 217  0  0   2  93   4  0  0
 218  1  0   0   0   0  0  0
 219  0  0   5   0   0 11  0
 220  2  0   6  94   8  0  0
 221  0 17   0   0   1  0  0
 222  0  0   2  95   4  0  0
 223  1  0   0   0   0  0  0
 224  0  0   5   0   0 17  0
 225  2  0   6  96   8  0  0
 226  0 22   0   0   1  0  0
 227  0  0   2  97   4  0  0
 228  1  0   0   0   0  0  0
 229  0  0   5   0   0 22  0
 230  2  0   6  98   8  0  0
 231  0  2   0   0   1  0  0
 232  0  0   2  99   4  0  0
 233  1  0   0   0   0  0  0
 234  0  0   5   0   0  2  0
 235  2  0   6 100   8  0  0
 236  0 23   0   0   1  0  0
 237  0  0   2 101   4  0  0
 238  1  0   0   0   0  0  0
 239  0  0   5   0   0 23  0
 240  2  0   6 102   8  0  0
 241  0 15   0   0   1  0  0
 242  0  0   2 103   4  0  0
 243  1  0   0   0   0  0  0
 244  0  0   5   0   0 15  0
 245  2  0   6 104   8  0  0
 246  0 14   0   0   1  0  0
 247  0  0   2 105   4  0  0
 248  1  0   0   0   0  0  0
 249  0  0   5   0   0 14  0
 250  2  0   6 106   8  0  0
 251  0 22   0   0   1  0  0
 252  0  0   2 107   4  0  0
 253  1  0   0   0   0  0  0
 254  0  0   5   0   0 22  0
 255  2  0   6 108   8  0  0
 256  0  4   0   0   1  0  0
 257  0  0   2 109   4  0  0
 258  1  0   0   0   0  0  0
 259  0  0   5   0   0  4  0
 260  2  0   6 110   8  0  0
 261  0 21   0   0   1  0  0
 262  0  0   2 111   4  0  0
 263  1  0   0   0   0  0  0
 264  0  0   5   0   0 21  0
 265  2  0   6 112   8  0  0
 266  0 18   0   0   1  0  0
 267  0  0   2 113   4  0  0
 268  1  0   0   0   0  0  0
 269  0  0   5   0   0 18  0
 270  2  0   6 114   8  0  0
 271  0 10   0   0   1  0  0
 272  0  0   2 115   4  0  0
 273  1  0   0   0   0  0  0
 274  0  0   5   0   0 10  0
 275  2  0   6 116   8  0  0
 276  0 20   0   0   1  0  0
 277  0  0   2 117   4  0  0
 278  1  0   0   0   0  0  0
 279  0  0   5   0   0 20  0
 280  2  0   6 118   8  0  0
 281  0  9   0   0   1  0  0
 282  0  0   2 119   4  0  0
 283  1  0   0   0   0  0  0
 284  0  0   5   0   0  9  0
 285  2  0   6 120   8  0  0
 286  0 19   0   0   1  0  0
 287  0  0   2 121   4  0  0
 288  1  0   0   0   0  0  0
 289  0  0   5   0   0 19  0
 290  2  0   6 122   8  0  0
 291  0 18   0   0   1  0  0
 292  0  0   2 123   4  0  0
 293  1  0   0   0   0  0  0
 294  0  0   5   0   0 18  0
 295  2  0   6 124   8  0  0
 296  0  5   0   0   1  0  0
 297  0  0   2 125   4  0  0
 298  1  0   0   0   0  0  0
 299  0  0   5   0   0  5  0
 300  2  0   6 126   8  0  0
 301  0 17   0   0   1  0  0
 302  0  0   2 127   4  0  0
 303  1  0   0   0   0  0  0
 304  0  0   5   0   0 17  0
 305  2  0   6 128   8  0  0
 306  0 13   0   0   1  0  0
 307  0  0   2 129   4  0  0
 308  1  0   0   0   0  0  0
 309  0  0   5   0   0 13  0
 310  2  0   6 130   8  0  0
 311  0 16   0   0   1  0  0
 312  0  0   2 131   4  0  0
 313  1  0   0   0   0  0  0
 314  0  0   5   0   0 16  0
 315  2  0   6 132   8  0  0
 316  0 15   0   0   1  0  0
 317  0  0   2 133   4  0  0
 318  1  0   0   0   0  0  0
 319  0  0   5   0   0 15  0
 320  2  0   6 134   8  0  0
 321  0  1   0   0   1  0  0
 322  0  0   2 135   4  0  0
 323  1  0   0   0   0  0  0
 324  0  0   5   0   0  1  0
 325  2  0   6 136   8  0  0
 326  0 14   0   0   1  0  0
 327  0  0   2 137   4  0  0
 328  1  0   0   0   0  0  0
 329  0  0   5   0   0 14  0
 330  2  0   6 138   8  0  0
 331  0 13   0   0   1  0  0
 332  0  0   2 139   4  0  0
 333  1  0   0   0   0  0  0
 334  0  0   5   0   0 13  0
 335  2  0   6 140   8  0  0
 336  0 12   0   0   1  0  0
 337  0  0   2 141   4  0  0
[RF]
1      37.2186 1 2 100 0 0
2      37.2186 1 2 100 0 2.04204
3      37.2186 1 2 100 0 6.12611
4      37.2186 1 2 100 0 5.96903
5      37.2186 1 2 100 0 1.5708
6      37.2186 1 2 100 0 5.49779
7      37.2186 1 2 100 0 5.18363
8      37.2186 1 2 100 0 0.628319
9      37.2186 1 2 100 0 4.39823
10      37.2186 1 2 100 0 3.92699
11      37.2186 1 2 100 0 2.82743
12      37.2186 1 2 100 0 2.19911
13      37.2186 1 2 100 0 3.61283
14      37.2186 1 2 100 0 0.785398
15      37.2186 1 2 100 0 1.25664
16      37.2186 1 2 100 0 4.55531
17      37.2186 1 2 100 0 4.71239
18      37.2186 1 2 100 0 0.471239
19      37.2186 1 2 100 0 1.41372
20      37.2186 1 2 100 0 3.14159
21      37.2186 1 2 100 0 5.34071
22      37.2186 1 2 100 0 2.35619
23      37.2186 1 2 100 0 3.76991
24      37.2186 1 2 100 0 2.98451

# Format of trapezoid gradients:
# id amplitude rise flat fall delay
# ..      Hz/m   us   us   us    us
[TRAP]
 1       444444  70 3000  70  30
 2      -558036  90  820  90   0
 3      -549451  90  820  90   0
 4      -784163 130  740 130   0
 5       312500  50 3200  50   0
 6  1.19048e+06 190 1490 190   0
 7       549451  90  820  90   0
 8  1.19048e+06 190  930 190   0
 9      -545158  90  820  90   0
10       545158  90  820  90   0
11      -540865  90  820  90   0
12       540865  90  820  90   0
13      -536573  90  820  90   0
14       536573  90  820  90   0
15      -532280  90  820  90   0
16       532280  90  820  90   0
17      -527988  90  820  90   0
18       527988  90  820  90   0
19      -523695  90  820  90   0
20       523695  90  820  90   0
21      -519402  90  820  90   0
22       519402  90  820  90   0
23      -509511  80  840  80   0
24       509511  80  840  80   0
25      -505265  80  840  80   0
26       505265  80  840  80   0
27      -501019  80  840  80   0
28       501019  80  840  80   0
29      -496773  80  840  80   0
30       496773  80  840  80   0
31      -492527  80  840  80   0
32       492527  80  840  80   0
33      -488281  80  840  80   0
34       488281  80  840  80   0
35      -484035  80  840  80   0
36       484035  80  840  80   0
37      -479789  80  840  80   0
38       479789  80  840  80   0
39      -475543  80  840  80   0
40       475543  80  840  80   0
41      -471298  80  840  80   0
42       471298  80  840  80   0
43      -467052  80  840  80   0
44       467052  80  840  80   0
45      -462806  80  840  80   0
46       462806  80  840  80   0
47      -458560  80  840  80   0
48       458560  80  840  80   0
49      -454314  80  840  80   0
50       454314  80  840  80   0
51      -445228  70  860  70   0
52       445228  70  860  70   0
53      -441028  70  860  70   0
54       441028  70  860  70   0
55      -436828  70  860  70   0
56       436828  70  860  70   0
57      -432628  70  860  70   0
58       432628  70  860  70   0
59      -428427  70  860  70   0
60       428427  70  860  70   0
61      -424227  70  860  70   0
62       424227  70  860  70   0
63      -420027  70  860  70   0
64       420027  70  860  70   0
65      -415827  70  860  70   0
66       415827  70  860  70   0
67      -411626  70  860  70   0
68       411626  70  860  70   0
69      -407426  70  860  70   0
70       407426  70  860  70   0
71      -403226  70  860  70   0
72       403226  70  860  70   0
73      -399026  70  860  70   0
74       399026  70  860  70   0
75      -394825  70  860  70   0
76       394825  70  860  70   0
77      -390625  70  860  70   0
78       390625  70  860  70   0
79      -382314  60  880  60   0
80       382314  60  880  60   0
81      -378158  60  880  60   0
82       378158  60  880  60   0
83      -374003  60  880  60   0
84       374003  60  880  60   0
85      -369847  60  880  60   0
86       369847  60  880  60   0
87      -365691  60  880  60   0
88       365691  60  880  60   0
89      -361536  60  880  60   0
90       361536  60  880  60   0
91      -357380  60  880  60   0
92       357380  60  880  60   0
93      -353225  60  880  60   0
94       353225  60  880  60   0
95      -349069  60  880  60   0
96       349069  60  880  60   0
97      -344914  60  880  60   0
98       344914  60  880  60   0
99      -340758  60  880  60   0
100       340758  60  880  60   0
101      -336602  60  880  60   0
102       336602  60  880  60   0
103      -332447  60  880  60   0
104       332447  60  880  60   0
105      -328291  60  880  60   0
106       328291  60  880  60   0
107      -324136  60  880  60   0
108       324136  60  880  60   0
109      -316612  50  900  50   0
110       316612  50  900  50   0
111      -312500  50  900  50   0
112       312500  50  900  50   0
113      -308388  50  900  50   0
114       308388  50  900  50   0
115      -304276  50  900  50   0
116       304276  50  900  50   0
117      -300164  50  900  50   0
118       300164  50  900  50   0
119      -296053  50  900  50   0
120       296053  50  900  50   0
121      -291941  50  900  50   0
122       291941  50  900  50   0
123      -287829  50  900  50   0
124       287829  50  900  50   0
125      -283717  50  900  50   0
126       283717  50  900  50   0
127      -279605  50  900  50   0
128       279605  50  900  50   0
129      -275493  50  900  50   0
130       275493  50  900  50   0
131      -271382  50  900  50   0
132       271382  50  900  50   0
133      -267270  50  900  50   0
134       267270  50  900  50   0
135      -263158  50  900  50   0
136       263158  50  900  50   0
137      -259046  50  900  50   0
138       259046  50  900  50   0
139      -252279  40  920  40   0
140       252279  40  920  40   0
141      -248210  40  920  40   0
142       248210  40  920  40   0
143      -244141  40  920  40   0
144       244141  40  920  40   0
145      -240072  40  920  40   0
146       240072  40  920  40   0
147      -236003  40  920  40   0
148       236003  40  920  40   0
149      -231934  40  920  40   0
150       231934  40  920  40   0
151      -227865  40  920  40   0
152       227865  40  920  40   0
153      -223796  40  920  40   0
154       223796  40  920  40   0
155      -219727  40  920  40   0
156       219727  40  920  40   0
157      -215658  40  920  40   0
158       215658  40  920  40   0
159      -211589  40  920  40   0
160       211589  40  920  40   0
161      -207520  40  920  40   0
162       207520  40  920  40   0
163      -203451  40  920  40   0
164       203451  40  920  40   0
165      -199382  40  920  40   0
166       199382  40  920  40   0
167      -195312  40  920  40   0
168       195312  40  920  40   0
169      -189272  30  940  30   0
170       189272  30  940  30   0
171      -185245  30  940  30   0
172       185245  30  940  30   0
173      -181218  30  940  30   0
174       181218  30  940  30   0
175      -177191  30  940  30   0
176       177191  30  940  30   0
177      -173164  30  940  30   0
178       173164  30  940  30   0
179      -169137  30  940  30   0
180       169137  30  940  30   0
181      -165110  30  940  30   0
182       165110  30  940  30   0
183      -161082  30  940  30   0
184       161082  30  940  30   0
185      -157055  30  940  30   0
186       157055  30  940  30   0
187      -153028  30  940  30   0
188       153028  30  940  30   0
189      -149001  30  940  30   0
190       149001  30  940  30   0
191      -144974  30  940  30   0
192       144974  30  940  30   0
193      -140947  30  940  30   0
194       140947  30  940  30   0
195      -136920  30  940  30   0
196       136920  30  940  30   0
197      -132893  30  940  30   0
198       132893  30  940  30   0
199      -127551  20  960  20   0
200       127551  20  960  20   0
201      -123565  20  960  20   0
202       123565  20  960  20   0
203      -119579  20  960  20   0
204       119579  20  960  20   0
205      -115593  20  960  20   0
206       115593  20  960  20   0
207      -111607  20  960  20   0
208       111607  20  960  20   0
209      -107621  20  960  20   0
210       107621  20  960  20   0
211      -103635  20  960  20   0
212       103635  20  960  20   0
213     -99649.2  20  960  20   0
214      99649.2  20  960  20   0
215     -95663.3  20  960  20   0
216      95663.3  20  960  20   0
217     -91677.3  20  960  20   0
218      91677.3  20  960  20   0
219     -87691.3  20  960  20   0
220      87691.3  20  960  20   0
221     -83705.4  20  960  20   0
222      83705.4  20  960  20   0
223     -79719.4  20  960  20   0
224      79719.4  20  960  20   0
225     -75733.4  20  960  20   0
226      75733.4  20  960  20   0
227     -71747.4  20  960  20   0
228      71747.4  20  960  20   0
229     -67761.5  20  960  20   0
230      67761.5  20  960  20   0
231     -63131.3  10  980  10   0
232      63131.3  10  980  10   0
233     -59185.6  10  980  10   0
234      59185.6  10  980  10   0
235     -55239.9  10  980  10   0
236      55239.9  10  980  10   0
237     -51294.2  10  980  10   0
238      51294.2  10  980  10   0
239     -47348.5  10  980  10   0
240      47348.5  10  980  10   0
241     -43402.8  10  980  10   0
242      43402.8  10  980  10   0
243     -39457.1  10  980  10   0
244      39457.1  10  980  10   0
245     -35511.4  10  980  10   0
246      35511.4  10  980  10   0
247     -31565.7  10  980  10   0
248      31565.7  10  980  10   0
249     -27619.9  10  980  10   0
250      27619.9  10  980  10   0
251     -23674.2  10  980  10   0
252      23674.2  10  980  10   0
253     -19728.5  10  980  10   0
254      19728.5  10  980  10   0
255     -15782.8  10  980  10   0
256      15782.8  10  980  10   0
257     -11837.1  10  980  10   0
258      11837.1  10  980  10   0
259     -7891.41  10  980  10   0
260      7891.41  10  980  10   0
261     -3945.71  10  980  10   0
262      3945.71  10  980  10   0
263            0  10  980  10   0
264           -0  10  980  10   0

# Format of ADC events:
# id num dwell delay freq phase
# ..  ..    ns    us   Hz   rad
[ADC]
1 256 12500 50 0 0
2 256 12500 50 0 2.04204
3 256 12500 50 0 6.12611
4 256 12500 50 0 5.96903
5 256 12500 50 0 1.5708
6 256 12500 50 0 5.49779
7 256 12500 50 0 5.18363
8 256 12500 50 0 0.628319
9 256 12500 50 0 4.39823
10 256 12500 50 0 3.92699
11 256 12500 50 0 2.82743
12 256 12500 50 0 2.19911
13 256 12500 50 0 3.61283
14 256 12500 50 0 0.785398
15 256 12500 50 0 1.25664
16 256 12500 50 0 4.55531
17 256 12500 50 0 4.71239
18 256 12500 50 0 0.471239
19 256 12500 50 0 1.41372
20 256 12500 50 0 3.14159
21 256 12500 50 0 5.34071
22 256 12500 50 0 2.35619
23 256 12500 50 0 3.76991
24 256 12500 50 0 2.98451

# Format of delays:
# id delay (us)
[DELAYS]
1 780
2 3750

# Sequence Shapes
[SHAPES]

shape_id 1
num_samples 3020
0.0001067
0.0001069
0.000107
0.0001072
0.0001074
0.0001074
0
0.0001077
0.0001078
0.0001079
0.0001081
0.0001083
0.0001084
0.0001087
0.0001087
0
0.000109
0.0001091
0.0001093
0.0001095
0.0001097
0.0001098
0.00011
0.0001103
0.0001104
0.0001106
0.0001107
0.000111
0.0001112
0.0001114
0.0001116
0.0001118
0.000112
0.0001122
0.0001124
0.0001126
0.0001129
0.0001131
0.0001132
0.0001136
0.0001137
0.0001139
0.0001142
0.0001145
0.0001146
0.0001149
0.0001151
0.0001154
0.0001156
0.0001158
0.0001161
0.0001164
0.0001165
0.0001169
0.0001171
0.0001173
0.0001176
0.0001179
0.0001182
0.0001183
0.0001187
0.0001189
0.0001193
0.0001194
0.0001198
0.00012
0.0001203
0.0001206
0.0001209
0.0001211
0.0001215
0.0001217
0.0001221
0.0001223
0.0001226
0.0001229
0.0001232
0.0001235
0.0001238
0.0001242
0.0001244
0.0001247
0.0001251
0.0001253
0.0001257
0.000126
0.0001263
0.0001266
0.000127
0.0001272
0.0001276
0.000128
0.0001282
0.0001286
0.0001289
0.0001293
0.0001295
0.00013
0.0001302
0.0001306
0.000131
0.0001313
0.0001316
0.000132
0.0001323
0.0001327
0.000133
0.0001334
0.0001337
0.0001341
0.0001345
0.0001348
0.0001352
0.0001355
0.0001359
0.0001363
0.0001366
0.000137
0.0001374
0.0001377
0.0001381
0.0001385
0.0001389
0.0001392
0.0001396
0.00014
0.0001404
0.0001407
0.0001411
0.0001416
0.0001418
0.0001423
0.0001427
0.000143
0.0001435
0.0001438
0.0001442
0.0001446
0.000145
0.0001454
0.0001458
0.0001462
0.0001466
0.0001469
0.0001474
0.0001478
0.0001481
0.0001486
0.0001489
0.0001494
0.0001497
0.0001502
0.0001506
0.0001509
0.0001514
0.0001518
0.0001521
0.0001526
0.000153
0.0001534
0.0001537
0.0001542
0.0001546
0.000155
0.0001554
0.0001559
0.0001562
0.0001566
0.000157
0.0001575
0.0001578
0.0001583
0.0001586
0.0001591
0.0001595
0.0001599
0.0001602
0.0001607
0.0001611
0.0001615
0.0001619
0.0001623
0.0001627
0.0001632
0.0001635
0.0001639
0.0001643
0.0001648
0.0001651
0.0001655
0.000166
0.0001663
0.0001667
0.0001671
0.0001676
0.0001679
0.0001683
0.0001687
0.0001691
0.0001695
0.0001699
0.0001703
0.0001707
0.0001711
0.0001714
0.0001718
0.0001723
0.0001726
0.000173
0.0001733
0.0001738
0.0001741
0.0001745
0.0001749
0.0001753
0.0001756
0.000176
0.0001764
0.0001768
0.0001771
0.0001775
0.0001778
0.0001782
0.0001786
0.0001789
0.0001793
0.0001796
0.00018
0.0001803
0.0001807
0.000181
0.0001814
0.0001817
0.000182
0.0001824
0.0001828
0.000183
0.0001834
0.0001837
0.000184
0.0001844
0.0001847
0.000185
0.0001853
0.0001856
0.0001859
0.0001863
0.0001865
0.0001869
0.0001871
0.0001874
0.0001878
0.000188
0.0001883
0.0001886
0.0001888
0.0001892
0.0001894
0.0001896
0.00019
0.0001902
0.0001905
0.0001907
0.000191
0.0001912
0.0001915
0.0001917
0.0001919
0.0001922
0.0001924
0.0001927
0.0001928
0.0001931
0.0001933
0.0001935
0.0001937
0.000194
0.0001941
0.0001943
0.0001945
0.0001947
0.0001949
0.000195
0.0001952
0.0001954
0.0001956
0.0001957
0.0001958
0.000196
0.0001962
0.0001963
0.0001964
0.0001966
0.0001967
0.0001968
0.0001969
0.0001971
0.0001971
0
0.0001973
0.0001973
0
0.0001975
0.0001975
0
0.0001976
0.0001977
0.0001977
0
0.0001978
0.0001979
0.0001979
0
0.000198
0.000198
1
0.0001981
0.0001981
2
0.0001982
0.0001981
0.0001982
0.0001981
0.0001981
1
0.000198
0.000198
2
0.0001978
0.0001978
1
0.0001977
0.0001976
0.0001975
0.0001974
0.0001973
0.0001972
0.0001971
0.000197
0.0001968
0.0001967
0.0001966
0.0001964
0.0001963
0.0001961
0.0001959
0.0001958
0.0001956
0.0001953
0.0001952
0.000195
0.0001948
0.0001945
0.0001943
0.0001941
0.0001938
0.0001936
0.0001934
0.000193
0.0001928
0.0001925
0.0001922
0.0001919
0.0001917
0.0001913
0.0001909
0.0001907
0.0001903
0.0001899
0.0001896
0.0001893
0.0001889
0.0001885
0.0001881
0.0001877
0.0001873
0.0001869
0.0001864
0.0001861
0.0001856
0.0001851
0.0001847
0.0001843
0.0001837
0.0001833
0.0001828
0.0001823
0.0001817
0.0001813
0.0001807
0.0001802
0.0001796
0.0001791
0.0001785
0.000178
0.0001773
0.0001768
0.0001762
0.0001755
0.000175
0.0001743
0.0001736
0.0001731
0.0001723
0.0001717
0.000171
0.0001703
0.0001697
0.0001689
0.0001682
0.0001674
0.0001668
0.0001659
0.0001653
0.0001644
0.0001637
0.0001629
0.0001621
0.0001612
0.0001605
0.0001596
0.0001588
0.000158
0.000157
0.0001563
0.0001553
0.0001544
0.0001536
0.0001526
0.0001517
0.0001507
0.0001499
0.0001488
0.0001479
0.0001469
0.000146
0.0001449
0.0001439
0.0001429
0.0001419
0.0001408
0.0001398
0.0001387
0.0001376
0.0001366
0.0001354
0.0001343
0.0001332
0.0001321
0.000131
0.0001297
0.0001287
0.0001274
0.0001263
0.000125
0.0001239
0.0001226
0.0001213
0.0001202
0.0001189
0.0001176
0.0001163
0.000115
0.0001138
0.0001124
0.0001111
0.0001097
0.0001084
0.0001071
0.0001056
0.0001043
0.0001029
0.0001014
0.0001001
9.86e-05
9.71e-05
9.57e-05
9.43e-05
9.27e-05
9.13e-05
8.97e-05
8.82e-05
8.67e-05
8.52e-05
8.36e-05
8.2e-05
8.05e-05
7.88e-05
7.73e-05
7.56e-05
7.4e-05
7.24e-05
7.07e-05
6.91e-05
6.73e-05
6.57e-05
6.4e-05
6.22e-05
6.06e-05
5.88e-05
5.7e-05
5.53e-05
5.35e-05
5.17e-05
4.99e-05
4.81e-05
4.62e-05
4.44e-05
4.26e-05
4.07e-05
3.88e-05
3.7e-05
3.5e-05
3.31e-05
3.12e-05
2.92e-05
2.73e-05
2.53e-05
2.33e-05
2.14e-05
1.93e-05
1.73e-05
1.53e-05
1.33e-05
1.12e-05
9.1e-06
7e-06
5e-06
2.8e-06
7e-07
-1.4e-06
-3.6e-06
-5.7e-06
-7.9e-06
-1.01e-05
-1.22e-05
-1.45e-05
-1.67e-05
-1.9e-05
-2.12e-05
-2.34e-05
-2.58e-05
-2.8e-05
-3.03e-05
-3.26e-05
-3.5e-05
-3.73e-05
-3.96e-05
-4.2e-05
-4.44e-05
-4.68e-05
-4.92e-05
-5.16e-05
-5.4e-05
-5.65e-05
-5.89e-05
-6.14e-05
-6.39e-05
-6.63e-05
-6.89e-05
-7.14e-05
-7.39e-05
-7.64e-05
-7.91e-05
-8.16e-05
-8.41e-05
-8.68e-05
-8.94e-05
-9.19e-05
-9.47e-05
-9.72e-05
-0.0001
-0.0001026
-0.0001053
-0.000108
-0.0001106
-0.0001135
-0.0001161
-0.0001189
-0.0001217
-0.0001244
-0.0001272
-0.00013
-0.0001329
-0.0001356
-0.0001385
-0.0001413
-0.0001442
-0.0001471
-0.00015
-0.0001528
-0.0001558
-0.0001587
-0.0001616
-0.0001646
-0.0001675
-0.0001705
-0.0001735
-0.0001765
-0.0001795
-0.0001825
-0.0001855
-0.0001886
-0.0001917
-0.0001947
-0.0001978
-0.0002009
-0.000204
-0.0002072
-0.0002102
-0.0002135
-0.0002165
-0.0002198
-0.0002229
-0.0002261
-0.0002293
-0.0002325
-0.0002357
-0.000239
-0.0002423
-0.0002455
-0.0002487
-0.0002521
-0.0002554
-0.0002586
-0.000262
-0.0002653
-0.0002687
-0.000272
-0.0002754
-0.0002788
-0.0002821
-0.0002856
-0.0002889
-0.0002924
-0.0002959
-0.0002992
-0.0003028
-0.0003061
-0.0003097
-0.0003132
-0.0003167
-0.0003201
-0.0003238
-0.0003272
-0.0003308
-0.0003343
-0.0003379
-0.0003415
-0.0003451
-0.0003487
-0.0003523
-0.0003559
-0.0003595
-0.0003632
-0.0003668
-0.0003705
-0.0003742
-0.0003778
-0.0003816
-0.0003852
-0.000389
-0.0003927
-0.0003964
-0.0004001
-0.000404
-0.0004076
-0.0004115
-0.0004152
-0.0004191
-0.0004228
-0.0004267
-0.0004304
-0.0004343
-0.0004382
-0.000442
-0.0004458
-0.0004498
-0.0004536
-0.0004575
-0.0004614
-0.0004653
-0.0004692
-0.0004731
-0.0004771
-0.000481
-0.000485
-0.0004889
-0.000493
-0.0004968
-0.0005009
-0.0005049
-0.0005089
-0.0005128
-0.0005169
-0.000521
-0.000525
-0.000529
-0.000533
-0.0005372
-0.0005412
-0.0005453
-0.0005494
-0.0005534
-0.0005576
-0.0005617
-0.0005658
-0.0005699
-0.000574
-0.0005782
-0.0005824
-0.0005865
-0.0005907
-0.0005948
-0.000599
-0.0006032
-0.0006074
-0.0006115
-0.0006158
-0.00062
-0.0006242
-0.0006285
-0.0006327
-0.0006369
-0.0006411
-0.0006454
-0.0006497
-0.0006539
-0.0006582
-0.0006625
-0.0006667
-0.0006711
-0.0006753
-0.0006796
-0.000684
-0.0006882
-0.0006926
-0.0006969
-0.0007012
-0.0007055
-0.0007099
-0.0007143
-0.0007185
-0.000723
-0.0007273
-0.0007316
-0.000736
-0.0007404
-0.0007448
-0.0007491
-0.0007536
-0.0007579
-0.0007623
-0.0007668
-0.0007711
0.0007755
0.00078
0.0007844
0.0007887
0.0007932
0.0007977
0.0008021
0.0008065
0.0008109
0.0008154
0.0008198
0.0008243
0.0008287
0.0008332
0.0008376
0.0008421
0.0008466
0.000851
0.0008555
0.0008599
0.0008645
0.0008689
0.0008733
0.0008779
0.0008824
0.0008868
0.0008913
0.0008958
0.0009003
0.0009048
0.0009092
0.0009138
0.0009183
0.0009227
0.0009273
0.0009317
0.0009363
0.0009407
0.0009453
0.0009497
0.0009543
0.0009587
0.0009633
0.0009678
0.0009722
0.0009768
0.0009813
0.0009858
0.0009902
0.0009948
0.0009993
0.0010038
0.0010083
0.0010128
0.0010173
0.0010218
0.0010263
0.0010309
0.0010353
0.0010398
0.0010442
0.0010488
0.0010533
0.0010578
0.0010623
0.0010667
0.0010712
0.0010758
0.0010802
0.0010846
0.0010892
0.0010936
0.0010981
0.0011026
0.0011071
0.0011115
0.001116
0.0011204
0.0011249
0.0011293
0.0011338
0.0011383
0.0011427
0.0011471
0.0011516
0.0011559
0.0011605
0.0011648
0.0011693
0.0011737
0.0011781
0.0011825
0.0011869
0.0011913
0.0011957
0.0012001
0.0012045
0.0012089
0.0012132
0.0012176
0.001222
0.0012263
0.0012307
0.0012351
0.0012394
0.0012437
0.001248
0.0012524
0.0012567
0.001261
0.0012654
0.0012696
0.0012739
0.0012782
0.0012825
0.0012868
0.001291
0.0012953
0.0012995
0.0013038
0.0013081
0.0013122
0.0013165
0.0013208
0.0013249
0.0013291
0.0013333
0.0013375
0.0013417
0.0013459
0.00135
0.0013541
0.0013584
0.0013624
0.0013666
0.0013707
0.0013748
0.0013789
0.001383
0.0013871
0.0013911
0.0013953
0.0013992
0.0014034
0.0014073
0.0014114
0.0014154
0.0014194
0.0014234
0.0014274
0.0014313
0.0014353
0.0014393
0.0014432
0.0014472
0.0014511
0.0014549
0.0014589
0.0014628
0.0014667
0.0014705
0.0014743
0.0014783
0.001482
0.0014859
0.0014896
0.0014935
0.0014972
0.0015011
0.0015048
0.0015085
0.0015122
0.001516
0.0015197
0.0015234
0.0015271
0.0015307
0.0015344
0.0015381
0.0015417
0.0015453
0.0015489
0.0015524
0.0015561
0.0015596
0.0015632
0.0015667
0.0015703
0.0015737
0.0015773
0.0015807
0.0015841
